           r                       rho                 velocity
 0.150000000000000E+05    1.049184263108087E+12   -2.165530322429853E+06
 0.450000000000000E+05    1.049114807047616E+12   -5.941346626690073E+06
 0.750000000000000E+05    1.048977544122519E+12   -9.973096240725489E+06
 0.105000000000000E+06    1.048780428051698E+12   -1.398532421169223E+07
 0.135000000000000E+06    1.048526087099993E+12   -1.799058088821340E+07
 0.165000000000000E+06    1.048226962601482E+12   -2.199361121902304E+07
 0.195000000000000E+06    1.047872522160587E+12   -2.599497683580455E+07
 0.225000000000000E+06    1.047463641814220E+12   -2.999553025129008E+07
 0.255000000000000E+06    1.047002082361074E+12   -3.399570139847057E+07
 0.285000000000000E+06    1.046495637215111E+12   -3.799567850349703E+07
 0.315000000000000E+06    1.045941944468401E+12   -4.199545037302636E+07
 0.345000000000000E+06    1.045357398608121E+12   -4.599508845734759E+07
 0.375000000000000E+06    1.044692446843967E+12   -4.999439461558795E+07
 0.405000000000000E+06    1.043993196333204E+12   -5.399356421190415E+07
 0.435000000000000E+06    1.043245247959666E+12   -5.799253991560033E+07
 0.465000000000000E+06    1.042419628518638E+12   -6.199119919579741E+07
 0.495000000000000E+06    1.041576157427944E+12   -6.598978575031121E+07
 0.525000000000000E+06    1.040652388185167E+12   -6.998802399466895E+07
 0.555000000000000E+06    1.039701801221730E+12   -7.398614591151193E+07
 0.585000000000000E+06    1.038678281244519E+12   -7.798392262780346E+07
 0.615000000000000E+06    1.037621402759857E+12   -8.198154145434694E+07
 0.645000000000000E+06    1.036498916042640E+12   -8.597882209151103E+07
 0.675000000000000E+06    1.035336673655144E+12   -8.997589780095589E+07
 0.705000000000000E+06    1.033976390859815E+12   -9.397165240554914E+07
 0.735000000000000E+06    1.032460001674132E+12   -9.796636564231282E+07
 0.765000000000000E+06    1.030943612488449E+12   -1.019610788790765E+08
 0.795000000000000E+06    1.029427223302766E+12   -1.059557921158402E+08
 0.825000000000000E+06    1.027910834117083E+12   -1.099505053526039E+08
 0.855000000000000E+06    1.026394444931400E+12   -1.139452185893676E+08
 0.885000000000000E+06    1.024878055745717E+12   -1.179399318261313E+08
 0.915000000000000E+06    1.023361666560034E+12   -1.219346450628950E+08
 0.945000000000000E+06    1.021845277374351E+12   -1.259293582996587E+08
 0.975000000000000E+06    1.020328888188669E+12   -1.299240715364223E+08
 0.100500000000000E+07    1.018812499002985E+12   -1.339187847731860E+08
 0.103500000000000E+07    1.017296109817303E+12   -1.379134980099497E+08
 0.106500000000000E+07    1.015633349598231E+12   -1.419068519388506E+08
 0.109500000000000E+07    1.013543740755938E+12   -1.458962418410150E+08
 0.112500000000000E+07    1.011454131913644E+12   -1.498856317431794E+08
 0.115500000000000E+07    1.009364523071350E+12   -1.538750216453438E+08
 0.118500000000000E+07    1.007274914229057E+12   -1.578644115475082E+08
 0.121500000000000E+07    1.005185305386763E+12   -1.618538014496726E+08
 0.124500000000000E+07    1.003095696544469E+12   -1.658431913518370E+08
 0.127500000000000E+07    1.001006087702176E+12   -1.698325812540014E+08
 0.130500000000000E+07    9.989164788598820E+11   -1.738219711561659E+08
 0.133500000000000E+07    9.968268700175884E+11   -1.778113610583303E+08
 0.136500000000000E+07    9.947372611752947E+11   -1.818007509604947E+08
 0.139500000000000E+07    9.926476523330010E+11   -1.857901408626591E+08
 0.142500000000000E+07    9.905580434907073E+11   -1.897795307648235E+08
 0.145500000000000E+07    9.879771766966865E+11   -1.937620612120779E+08
 0.148500000000000E+07    9.853712659718967E+11   -1.977442419699007E+08
 0.151500000000000E+07    9.827653552471072E+11   -2.017264227277236E+08
 0.154500000000000E+07    9.801594445223173E+11   -2.057086034855464E+08
 0.157500000000000E+07    9.775535337975276E+11   -2.096907842433693E+08
 0.160500000000000E+07    9.749476230727379E+11   -2.136729650011921E+08
 0.163500000000000E+07    9.723417123479482E+11   -2.176551457590149E+08
 0.166500000000000E+07    9.697358016231584E+11   -2.216373265168378E+08
 0.169500000000000E+07    9.671298908983688E+11   -2.256195072746606E+08
 0.172500000000000E+07    9.645239801735790E+11   -2.296016880324835E+08
 0.175500000000000E+07    9.619180694487893E+11   -2.335838687903063E+08
 0.178500000000000E+07    9.593121587239994E+11   -2.375660495481291E+08
 0.181500000000000E+07    9.564167622806255E+11   -2.415422831422416E+08
 0.184500000000000E+07    9.533638648265375E+11   -2.455152810523975E+08
 0.187500000000000E+07    9.503109673724492E+11   -2.494882789625533E+08
 0.190500000000000E+07    9.472580699183611E+11   -2.534612768727092E+08
 0.193500000000000E+07    9.442051724642728E+11   -2.574342747828650E+08
 0.196500000000000E+07    9.411522750101848E+11   -2.614072726930209E+08
 0.199500000000000E+07    9.380993775560967E+11   -2.653802706031768E+08
 0.202500000000000E+07    9.350464801020085E+11   -2.693532685133327E+08
 0.205500000000000E+07    9.319935826479203E+11   -2.733262664234885E+08
 0.208500000000000E+07    9.289406851938322E+11   -2.772992643336444E+08
 0.211500000000000E+07    9.258877877397440E+11   -2.812722622438003E+08
 0.214500000000000E+07    9.228348902856560E+11   -2.852452601539562E+08
 0.217500000000000E+07    9.196551438231270E+11   -2.892144172583383E+08
 0.220500000000000E+07    9.162332664620658E+11   -2.931762429869016E+08
 0.223500000000000E+07    9.128113891010046E+11   -2.971380687154649E+08
 0.226500000000000E+07    9.093895117399435E+11   -3.010998944440284E+08
 0.229500000000000E+07    9.059676343788822E+11   -3.050617201725917E+08
 0.232500000000000E+07    9.025457570178210E+11   -3.090235459011550E+08
 0.235500000000000E+07    8.991238796567598E+11   -3.129853716297184E+08
 0.238500000000000E+07    8.957020022956987E+11   -3.169471973582818E+08
 0.241500000000000E+07    8.922801249346375E+11   -3.209090230868452E+08
 0.244500000000000E+07    8.888582475735762E+11   -3.248708488154085E+08
 0.247500000000000E+07    8.854363702125151E+11   -3.288326745439720E+08
 0.250500000000000E+07    8.820144928514539E+11   -3.327945002725353E+08
 0.253500000000000E+07    8.785801981860372E+11   -3.367557351924529E+08
 0.256500000000000E+07    8.748473255181384E+11   -3.407027639320061E+08
 0.259500000000000E+07    8.711144528502395E+11   -3.446497926715592E+08
 0.262500000000000E+07    8.673815801823408E+11   -3.485968214111123E+08
 0.265500000000000E+07    8.636487075144420E+11   -3.525438501506655E+08
 0.268500000000000E+07    8.599158348465431E+11   -3.564908788902186E+08
 0.271500000000000E+07    8.561829621786443E+11   -3.604379076297718E+08
 0.274500000000000E+07    8.524500895107455E+11   -3.643849363693249E+08
 0.277500000000000E+07    8.487172168428466E+11   -3.683319651088780E+08
 0.280500000000000E+07    8.449843441749478E+11   -3.722789938484312E+08
 0.283500000000000E+07    8.412514715070488E+11   -3.762260225879843E+08
 0.286500000000000E+07    8.375185988391501E+11   -3.801730513275374E+08
 0.289500000000000E+07    8.337857261712512E+11   -3.841200800670906E+08
 0.292500000000000E+07    8.300528535033525E+11   -3.880671088066438E+08
 0.295500000000000E+07    8.263199808354535E+11   -3.920141375461969E+08
 0.298500000000000E+07    8.225712830233563E+11   -3.959598229964181E+08
 0.301459338938284E+07    8.186665282495125E+11   -3.998344704367515E+08
 0.304392214615764E+07    8.147966909170676E+11   -4.036744696641304E+08
 0.307353624024425E+07    8.108892042225955E+11   -4.075518279608127E+08
 0.310343844766835E+07    8.069437018782297E+11   -4.114669087904285E+08
 0.313363157146335E+07    8.029598140325157E+11   -4.154200791527190E+08
 0.316411844193317E+07    7.989371672357417E+11   -4.194117096179385E+08
 0.319490191691754E+07    7.948753844049309E+11   -4.234421743615922E+08
 0.322598488205991E+07    7.907740847884945E+11   -4.275118511995112E+08
 0.325737025107794E+07    7.866328839305392E+11   -4.316211216232690E+08
 0.328906096603665E+07    7.824513936348287E+11   -4.357703708359422E+08
 0.332105999762416E+07    7.782292219283945E+11   -4.399599877882201E+08
 0.335337034543023E+07    7.739659730247913E+11   -4.441903652148643E+08
 0.338599503822738E+07    7.696612472869974E+11   -4.484618996715242E+08
 0.341893713425485E+07    7.653146411899515E+11   -4.527749915719095E+08
 0.345219972150527E+07    7.608526304653436E+11   -4.571149753828595E+08
 0.348578591801411E+07    7.562995391573040E+11   -4.614873574830834E+08
 0.351969887215198E+07    7.517021511596949E+11   -4.659022781663202E+08
 0.355394176291974E+07    7.470600355132904E+11   -4.703601512873068E+08
 0.358851780024656E+07    7.423727570660940E+11   -4.748613947271426E+08
 0.362343022529072E+07    7.376398764325469E+11   -4.794064304324615E+08
 0.365868231074353E+07    7.328609499523413E+11   -4.839956844549847E+08
 0.369427736113606E+07    7.280355296488307E+11   -4.886295869914595E+08
 0.373021871314890E+07    7.231631631870366E+11   -4.933085724239857E+08
 0.376650973592499E+07    7.182433938312476E+11   -4.980330793607342E+08
 0.380315383138540E+07    7.132757604022031E+11   -5.028035506770625E+08
 0.384015443454822E+07    7.082597972338645E+11   -5.076204335570301E+08
 0.387751501385062E+07    7.031950341297621E+11   -5.124841795353171E+08
 0.391523907147391E+07    6.980738715474797E+11   -5.173659859902245E+08
 0.395333014367186E+07    6.929021346156367E+11   -5.222922033883796E+08
 0.399179180110220E+07    6.876800822365728E+11   -5.272663475923187E+08
 0.403062764916134E+07    6.824072248950116E+11   -5.322888848784006E+08
 0.406984132832231E+07    6.770830683132201E+11   -5.373602860593530E+08
 0.410943651447603E+07    6.717071134046735E+11   -5.424810265284055E+08
 0.414941691927590E+07    6.662788562272697E+11   -5.476515863038538E+08
 0.418978629048572E+07    6.607977879360928E+11   -5.528724500740553E+08
 0.423054841233101E+07    6.552633947357112E+11   -5.581441072428659E+08
 0.427170710585375E+07    6.496751578320154E+11   -5.634670519755147E+08
 0.431326622927052E+07    6.440325533835870E+11   -5.688417832449279E+08
 0.435522967833425E+07    6.384039388679208E+11   -5.742443938319277E+08
 0.439760138669934E+07    6.327674983450327E+11   -5.796829340451701E+08
 0.444038532629041E+07    6.270762213079558E+11   -5.851743854150831E+08
 0.448358550767468E+07    6.213295742562870E+11   -5.907192627104080E+08
 0.452720598043785E+07    6.155270184992377E+11   -5.963180857080337E+08
 0.457125083356375E+07    6.096680101051362E+11   -6.019713792417192E+08
 0.461572419581763E+07    6.037519998504399E+11   -6.076796732512932E+08
 0.466063023613320E+07    5.977784331682504E+11   -6.134435028323293E+08
 0.470597316400342E+07    5.917467500963292E+11   -6.192634082863071E+08
 0.475175722987508E+07    5.856563852246064E+11   -6.251399351712589E+08
 0.479798672554727E+07    5.796018671247695E+11   -6.310531615838264E+08
 0.484466598457367E+07    5.736295484782740E+11   -6.369935409645128E+08
 0.489179938266879E+07    5.675991255840939E+11   -6.429917138581219E+08
 0.493939133811814E+07    5.615100331502885E+11   -6.490482425334792E+08
 0.498744631219239E+07    5.553617003852333E+11   -6.551636947296816E+08
 0.503596880956561E+07    5.491535509441143E+11   -6.613386437093182E+08
 0.508496337873749E+07    5.428850028749012E+11   -6.675736683122077E+08
 0.513443461245976E+07    5.365554685637955E+11   -6.738693530096581E+08
 0.518438714816666E+07    5.301643546801471E+11   -6.802262879592558E+08
 0.523482566840971E+07    5.237581548258039E+11   -6.866366740652149E+08
 0.528575490129663E+07    5.176129617279365E+11   -6.930517874342135E+08
 0.533717962093455E+07    5.114079824995957E+11   -6.995293129680984E+08
 0.538910464787752E+07    5.051426354859273E+11   -7.060698578702184E+08
 0.544153484957841E+07    4.988163333731996E+11   -7.126740352513604E+08
 0.549447514084520E+07    4.924284831337487E+11   -7.193424641872200E+08
 0.554793048430166E+07    4.859784859703887E+11   -7.260757697764347E+08
 0.560190589085255E+07    4.794657372602800E+11   -7.328745831991808E+08
 0.565640642015337E+07    4.728896264982520E+11   -7.397395417763398E+08
 0.571143718108463E+07    4.662495372395739E+11   -7.466712890292412E+08
 0.576700333223076E+07    4.598669877969995E+11   -7.536162221775801E+08
 0.582311008236367E+07    4.536083222912990E+11   -7.605974008124547E+08
 0.587976269093105E+07    4.472887666904372E+11   -7.676464988194425E+08
 0.593696646854935E+07    4.409077285991690E+11   -7.747641769811063E+08
 0.599472677750162E+07    4.344646098588791E+11   -7.819511025087131E+08
 0.605304903224016E+07    4.279588064915113E+11   -7.892079491047800E+08
 0.611193869989409E+07    4.213897086429511E+11   -7.965353970262254E+08
 0.617140130078182E+07    4.147567005258593E+11   -8.039341331481375E+08
 0.623144240892854E+07    4.080591603619457E+11   -8.114048510281616E+08
 0.629206765258869E+07    4.018625751197581E+11   -8.188503892492132E+08
 0.635328271477362E+07    3.956407230276590E+11   -8.263623109384559E+08
 0.641509333378425E+07    3.893583389953849E+11   -8.339473155598483E+08
 0.647750530374903E+07    3.830148341121537E+11   -8.416061141318480E+08
 0.654052447516704E+07    3.766096137377141E+11   -8.493394245903579E+08
 0.660415675545644E+07    3.701420774466028E+11   -8.571479718560278E+08
 0.666840810950823E+07    3.636116189718625E+11   -8.650324879022057E+08
 0.673328456024539E+07    3.570176261482086E+11   -8.729937118235549E+08
 0.679879218918747E+07    3.509782339574464E+11   -8.809172604148797E+08
 0.686493713702068E+07    3.449311440276249E+11   -8.889083962231628E+08
 0.693172560417352E+07    3.388252224058174E+11   -8.969772772024204E+08
 0.699916385139798E+07    3.326598967228312E+11   -9.051246597296872E+08
 0.706725820035648E+07    3.264345890409359E+11   -9.133513075407349E+08
 0.713601503421439E+07    3.201487157996871E+11   -9.216579918016640E+08
 0.720544079823844E+07    3.138016877612245E+11   -9.300454911811934E+08
 0.727554200040090E+07    3.077309789061998E+11   -9.384435307938426E+08
 0.734632521198960E+07    3.019633154395873E+11   -9.468471604833403E+08
 0.741779706822396E+07    2.961395388004431E+11   -9.553325484663633E+08
 0.748996426887694E+07    2.902591030678499E+11   -9.639004901633201E+08
 0.756283357890312E+07    2.843214570096656E+11   -9.725517887332057E+08
 0.763641182907282E+07    2.783260440308516E+11   -9.812872551488898E+08
 0.771070591661240E+07    2.722723021212971E+11   -9.901077082731369E+08
 0.778572280585086E+07    2.665634673610798E+11   -9.989201755833495E+08
 0.786146952887261E+07    2.611390931430951E+11   -1.007739399967416E+09
 0.793795318617672E+07    2.556619455883627E+11   -1.016644425935143E+09
 0.801518094734247E+07    2.501315112689814E+11   -1.025636088243811E+09
 0.809316005170146E+07    2.445472717619474E+11   -1.034715229771992E+09
 0.817189780901621E+07    2.389087036005580E+11   -1.043882701598561E+09
 0.825140160016537E+07    2.332464454297475E+11   -1.053130530243080E+09
 0.833167887783563E+07    2.282573730723995E+11   -1.062261936364943E+09
 0.841273716722032E+07    2.232197623980048E+11   -1.071482181263571E+09
 0.849458406672480E+07    2.181331411808563E+11   -1.080792129244874E+09
 0.857722724867878E+07    2.129970326009980E+11   -1.090192653023526E+09
 0.866067446005550E+07    2.078109551995274E+11   -1.099684633804781E+09
 0.874493352319790E+07    2.025744228334639E+11   -1.109268961367074E+09
 0.883001233655194E+07    1.972869446301780E+11   -1.118946534145425E+09
 0.891591887540699E+07    1.926918570994766E+11   -1.128460550085378E+09
 0.900266119264341E+07    1.880895845868501E+11   -1.138054127849040E+09
 0.909024741948742E+07    1.834425369043418E+11   -1.147741040823289E+09
 0.917868576627337E+07    1.787502784376259E+11   -1.157522197059505E+09
 0.926798452321334E+07    1.740123693343168E+11   -1.167398513443434E+09
 0.935815206117425E+07    1.692283654627377E+11   -1.177370915781136E+09
 0.944919683246261E+07    1.646323327206955E+11   -1.187340049638295E+09
 0.954112737161675E+07    1.604955014730526E+11   -1.197190674554258E+09
 0.963395229620693E+07    1.563184232992709E+11   -1.207137135473597E+09
 0.972768030764310E+07    1.521007066399741E+11   -1.217180364777720E+09
 0.982232019199057E+07    1.478419561263336E+11   -1.227321303919108E+09
 0.991788082079367E+07    1.435417725430064E+11   -1.237560903509561E+09
 0.100143711519073E+08    1.392585212817485E+11   -1.247869087163519E+09
 0.101118002303367E+08    1.355650391739564E+11   -1.257944088093233E+09
 0.102101771890852E+08    1.318356234511127E+11   -1.268117107964013E+09
 0.103095112500106E+08    1.280699245177263E+11   -1.278389100394908E+09
 0.104098117246894E+08    1.242675893771176E+11   -1.288761028282659E+09
 0.105110880152896E+08    1.204282615983282E+11   -1.299233863891954E+09
 0.106133496154526E+08    1.166822648058881E+11   -1.309722831753372E+09
 0.107166061111823E+08    1.134021017677705E+11   -1.319984240757728E+09
 0.108208671817443E+08    1.100900262653498E+11   -1.330345482253562E+09
 0.109261426005730E+08    1.067457278246145E+11   -1.340807527503822E+09
 0.110324422361881E+08    1.033688929509737E+11   -1.351371357220800E+09
 0.111397760531190E+08    9.995920509987120E+10   -1.362037961658067E+09
 0.112481541128395E+08    9.696897740906282E+10   -1.372425586605735E+09
 0.113575865747108E+08    9.419933194700253E+10   -1.382703143391074E+09
 0.114680836969335E+08    9.140274080848872E+10   -1.393080689768461E+09
 0.115796558375097E+08    8.857894184102235E+10   -1.403559198529264E+09
 0.116923134552137E+08    8.572767034164183E+10   -1.414139651929066E+09
 0.118060671105725E+08    8.284865903211024E+10   -1.424823041779742E+09
 0.119209274668555E+08    7.994163803386028E+10   -1.435610369542430E+09
 0.120369052910744E+08    7.700633484269591E+10   -1.446502646421412E+09
 0.121540114549924E+08    7.453410813400206E+10   -1.456937227723527E+09
 0.122722569361432E+08    7.226824301161835E+10   -1.467209153455572E+09
 0.123916528188602E+08    6.998033345455467E+10   -1.477581013995564E+09
 0.125122102953152E+08    6.767016499413168E+10   -1.488053781601879E+09
 0.126339406665682E+08    6.533752107512008E+10   -1.498628437991924E+09
 0.127568553436262E+08    6.298218303544072E+10   -1.509305974434162E+09
 0.128809658485129E+08    6.060393008566723E+10   -1.520087391841034E+09
 0.130062838153492E+08    5.836764978574609E+10   -1.530703155127931E+09
 0.131328209914432E+08    5.651860571651743E+10   -1.540752033446984E+09
 0.132605892383921E+08    5.465157243389658E+10   -1.550898676562150E+09
 0.133896005331932E+08    5.276637492215305E+10   -1.561144035619922E+09
 0.135198669693676E+08    5.086283646284124E+10   -1.571489071020425E+09
 0.136514007580930E+08    4.894077861823481E+10   -1.581934752507448E+09
 0.137842142293491E+08    4.700002121459993E+10   -1.592482059259343E+09
 0.139183198330726E+08    4.522401244853337E+10   -1.602724122327648E+09
 0.140537301403253E+08    4.372018451405428E+10   -1.612422916264773E+09
 0.141904578444713E+08    4.220172594850011E+10   -1.622216069052877E+09
 0.143285157623681E+08    4.066849441154002E+10   -1.632104498702263E+09
 0.144679168355670E+08    3.912034617802463E+10   -1.642089132154487E+09
 0.146086741315270E+08    3.755713612451324E+10   -1.652170905369254E+09
 0.147508008448392E+08    3.597871771566980E+10   -1.662350763412149E+09
 0.148943102984642E+08    3.475203237020068E+10   -1.671575333031838E+09
 0.150392159449804E+08    3.354455051911618E+10   -1.680800216002988E+09
 0.151855313678455E+08    3.232532116614798E+10   -1.690114847180276E+09
 0.153332702826697E+08    3.109423002071652E+10   -1.699520099717384E+09
 0.154824465385013E+08    2.985116168031773E+10   -1.709016855262836E+09
 0.156330741191248E+08    2.859599961970497E+10   -1.718606004042654E+09
 0.157851671443723E+08    2.758836485114838E+10   -1.727296185039515E+09
 0.159387398714463E+08    2.662205377135643E+10   -1.735875595982512E+09
